Frequency,Nominal,Min,Max
250,137106.07087403434,135717.55007789773,139455.87888911492
255.82324807018853,133529.96668663615,132176.34843449132,135857.80799679042
261.7821370127249,130028.74304121979,128709.28652995836,132335.2375267952
267.8798263094016,126600.76851478689,125314.74966602196,128886.49579001116
274.11954903579624,123244.4600923957,121991.17109785009,125509.95909347448
280.50461357549085,119958.28244904832,118737.03132238978,122204.05104996248
287.03840537422064,116740.74722709184,115550.85736208514,118967.2418909776
293.7243887348823,113590.41230540411,112431.22204027958,115798.04777978663
300.5661086543532,110505.88105659238,109376.7432445379,112695.03012108004
307.5671927030953,107485.80158835258,106386.08317407903,109656.79486368282
314.7313529485417,104528.86596514491,103427.55427757408,106681.99179270597
322.0623879232834,101633.8094063659,100522.1368415373,103769.3138074491
329.56418463910165,98799.40945726728,97677.85035013703,100917.49618137337
337.2407206479133,96024.48512897205,94893.54382897679,98125.31580045236
345.0960661507211,93307.8960041157,92168.10673299934,95391.5903762695
353.13438615568845,90648.54130484795,89500.46787073406,92715.1776303473
361.35994268648176,88045.35892020653,86889.59428044668,90094.97444630266
369.7770970420517,85497.32439020445,84334.49005634828,87529.91598664872
378.3903121090519,83003.44984435262,81834.19512359258,85018.97477128281
387.20415472812016,80562.78289281408,79387.78396137913,82561.15971502464
396.22329811527817,78174.40546885549,76994.36427412847,80155.51512191679
405.4525243397323,75837.43262186582,74653.0756114229,77801.11963441293
414.89672685938996,73551.01126080225,72363.08793812548,75497.085136066
424.5609131154359,71314.31884860383,70123.60015690453,73242.55560683801
434.45020718734366,69126.56204881413,67933.83858617034,71036.70593075413
444.5698525097305,66986.975326404,65793.05539726042,68878.74065623616
454.92521465249564,64894.81950553416,63700.527015530264,66767.89271013127
465.5217841657166,62849.380287807646,61655.55249080227,64703.42206714871
476.3651794908115,60849.96673530567,59657.45184340781,62684.614377158534
487.461149939511,58895.90972350833,57705.5643927782,60710.77955354187
498.81557874221954,56986.56036991316,55799.24707623083,58781.2503265471
510.434486167382,55121.28844490403,53937.87276617326,56895.38076634047
522.3240327135095,53299.48077204266,52120.82859447678,55052.54478117399
534.4905223755576,51520.53962557089,50347.51429317089,53252.13459677633
546.9404059873876,49783.88113339049,48617.340560916025,51493.55922372587
559.6802846420844,48088.93369421579,46929.72746487462,49776.24292013594
572.7169131919427,46435.136417886104,45284.102887664354,48099.62365749971
586.0572038299799,44821.93759802235,43679.901028970075,46463.15159796117
599.708229754872,43248.79322627785,42116.56097118357,44866.287591593355
613.677228921257,41715.165557370725,40593.52531806433,43308.501702493915
627.9716078773944,40220.521733899455,39110.238914933325,41789.271772594424
642.5989456922152,38764.332479624536,37666.1476582882,40308.08203206596
657.5669979738448,37346.07086945065,36260.69740199965,38864.42176505743
672.8837009817282,35965.2111837835,34893.332966409245,37457.78403922778
688.5571758345409,34621.2278542587,33563.49725573305,36087.664507153764
704.5957328161127,33313.594507063135,32270.63048817685,34753.56028717107
721.0078757816507,32041.783109215045,31014.169542129668,33454.96893060825
737.8023066665955,30805.263222235473,29793.547420723335,32191.38748164296
754.9879301005031,29603.50136666816,28608.192835963557,30962.311635223166
772.5738581283966,28435.96049989226,27457.529912561575,29767.234997621577
790.5694150420937,27302.099608651006,26340.978010553175,28605.64845327279
808.9841423240695,26201.373416705068,25257.951664802335,27477.039640588104
827.8278037064765,25133.232207036333,24207.860638567116,26380.8925384729
847.1103903480051,24097.121757091758,23190.110087477977,25316.687164307365
866.8421261313277,23092.483384693463,22204.100829554747,24283.899383211563
887.0334730839372,22118.754101458137,21249.229716289614,23282.0008275218
907.6951369252519,21175.36686989651,20324.89009935341,22310.458924574727
928.8380727429297,20261.750959802972,19430.472387162994,21368.737030146305
950.4734908014013,19377.332399121562,18565.364685379544,20456.294664245383
972.6128624856998,18521.5345141923,17728.953515404795,19572.587845425092
995.2679263837414,17693.778554155273,16920.624605108464,18717.069519371318
1018.45069451028,16893.48439432792,16139.763746366889,17889.190077263676
1042.1734586758366,16120.071313583016,15385.75771452256,17088.397959295035
1066.4487970039797,15372.958841148158,14657.995245596281,16314.140338790654
1091.2895806004128,14651.567668833155,13955.868068011903,15565.863882598916
1116.7089803774056,13955.320625478716,13278.771986730211,14843.01558383976
1142.7204740371853,13283.643711419098,12626.108019060077,14145.043663708513
1169.3378532179931,12635.967191977375,11997.283583029863,13471.398539848919
1196.5752308065935,12011.72675048169,11391.713741090798,12821.533859845902
1224.447048421113,11410.364703022336,10808.822504110592,12194.90759965723
1252.9680840681783,10831.331279186217,10248.044203134352,11590.983228322002
1282.1534599784097,10274.085975333284,9708.824939276137,11009.230942069777
1312.018650624429,9738.09898964302,9190.624125393935,10449.128973026667
1342.5794909256292,9222.852751180877,8692.916136925238,9910.164980092919
1373.8521846440588,8727.843558630242,8215.1920934314,9391.837532263533
1405.85331297587,8252.583348093927,7756.961796999631,8893.657697685489
1438.5998433428895,7796.60161344628,7317.755858595076,8415.150755075141
1472.1091383889695,7359.4475069935925,6897.128048547664,7955.85804770405
1506.3989651858915,6940.692152444191,6494.657912213346,7515.339003885754
1541.4875046537024,6539.931205973206,6109.95369577376,7093.17335153692
1577.39336120048,6156.787703760357,5742.65562894681,6688.963557556047
1614.1355725866356,5790.915234576486,5392.439609120554,6302.337524805917
1651.7336200189866,5442.001471864751,5059.021321974332,5932.951579343718
1690.207438479951,5109.772088297237,4742.160812164715,5580.493776541687
1729.5774272973376,4793.995052418998,4441.667476816134,5244.687544308723
1769.8644609603411,4494.485264990782,4157.405383719135,4925.295660897834
1811.0899001874714,4211.109422456439,3889.298700529516,4622.124528137512
1853.2756032522898,3943.790883714751,3637.3368417801244,4335.028640439312
1896.4439375729553,3692.514148023412,3401.5786753001444,4063.915055015196
1940.617791571725,3457.328309053352,3182.154759514892,3808.747526241638
1985.8205868106993,3238.348519550696,2979.2661044319902,3569.5497627617265
2032.0762904102435,3035.754085156205,2793.1773983121925,3346.4069884115956
2079.409427756673,2849.7813437673253,2624.202134248243,3139.4646378470866
2127.845095505936,2680.7090855577894,2472.676846569469,2948.922622954023
2177.4089748901965,2528.83413851817,2338.922117852056,2775.023246630407
2228.127345334359,2394.4352124661023,2223.189629399819,2618.0306760488884
2280.027098389769,2277.7245497451677,2125.597657504563,2478.200173449315
2333.1357519924723,2178.789636725917,2046.061869947521,2355.7363388927906
2387.4814650535845,2097.530993432408,1984.2328640606934,2250.741705196137
2443.0930523895213,2033.6058958548833,1939.4544270654312,2163.160094501719
2499.9999999999945,1986.3900379819925,1910.7547376028806,2092.7225618928787
2558.2324807018795,1954.9677884311611,1896.875996939369,2039.1071383219735
2617.821370127243,1938.156234888413,1896.338343656883,2004.1675204776968
2678.79826309401,1934.5601737594782,1907.525407345183,1983.6699149753151
2741.1954903579563,1942.6477864831713,1928.7750433111044,1976.3108749815572
2805.046135754902,1960.8329516178526,1945.5358010958541,1980.6482734008475
2870.3840537422,1987.5509968036708,1970.5665905877754,2004.7193242220185
2937.2438873488168,2021.318943933467,2003.023278332982,2039.70435529822
3005.661086543525,2060.7766011261874,2034.5721812066718,2083.557121715144
3075.6719270309463,2104.7092391829033,2070.233792360114,2133.169930053778
3147.31352948541,2152.055185785796,2110.848663287482,2185.091042429592
3220.6238792328268,2201.9025699622152,2155.3209408810876,2238.555745876746
3295.6418463910095,2253.479208806738,2202.6988611044007,2292.9285604379074
3372.4072064791253,2306.13884025672,2252.168347440513,2347.6865822778277
3450.960661507203,2359.3459934609577,2303.041814771548,2402.4033905058513
3531.343861556876,2412.6609794300784,2354.744662209978,2456.734288843441
3613.5994268648087,2465.725862075932,2406.8011687987705,2510.403219528776
3697.770970420508,2518.251834821042,2458.8208655565736,2563.1914190723924
3783.9031210905096,2570.008147460362,2510.4859817000033,2614.9277343751914
3872.041547281192,2620.8125609727017,2561.540238294909,2665.4804428615844
3962.232981152772,2670.52321817993,2611.7790571114297,2714.750392160897
4054.525243397313,2719.0317776124557,2661.0411325383943,2762.6652735201556
4148.9672685938895,2766.257646966046,2709.201251880461,2809.1748557824158
4245.609131154349,2812.1431580615586,2756.164223110574,2854.2470256529755
4344.502071873426,2856.649539000328,2801.8597644852953,2897.864500623624
4445.698525097294,2899.7535562840694,2846.2382176616006,2940.0221009200363
4549.252146524945,2941.4447172164028,2889.266958984662,2980.7244850144557
4655.217841657154,2981.722939435291,2930.9273987873385,3019.9842691614163
4763.651794908103,3020.5966092572376,2971.2124737771196,3057.820465021765
4874.611499395098,3058.0809634228735,3010.1245517990783,3094.2571808932385
4988.155787422183,3094.1967398493057,3047.6736809659974,3129.322541605659
5104.344861673806,3128.9690522718083,3083.8761261955146,3163.0477900302913
5223.24032713508,3162.426451401484,3118.753145634,3195.466539652271
5344.905223755562,3194.600141651977,3152.329967414971,3226.614152993778
5469.404059873862,3225.5233278012715,3184.634933870833,3256.527225055331
5596.802846420829,3255.2306703373974,3215.6987858714115,3285.2431545343084
5727.169131919412,3283.757831848526,3245.5540645715982,3312.7997885265186
5860.572038299784,3311.1410997935086,3274.2346116665985,3339.2351288364016
5997.082297548704,3337.417073441622,3301.775152410004,3364.5870900113255
6136.772289212554,3362.622404793894,3328.2109482606143,3388.8933008544036
6279.716078773928,3386.7935849701794,3353.5775081839197,3412.1909425228864
6425.989456922136,3409.9667689295106,3377.910349422988,3434.5166174377227
6575.669979738431,3432.1776325380797,3401.244800036569,3455.906244156943
6728.8370098172645,3453.4612569516858,3423.6158367339217,3476.394974135511
6885.571758345391,3473.8520360723346,3445.057952560333,3496.0171269354673
7045.957328161108,3493.383603499967,3465.6050498411328,3514.806140985117
7210.078757816488,3512.0887759530588,3485.2903545049467,3532.7945374335736
7378.023066665936,3529.9995105949747,3504.1463485034506,3550.0138950220626
7549.879301005011,3547.146874091769,3522.204717545099,3566.4948342086523
7725.738581283947,3563.561021554247,3539.4963117805046,3582.267009048512
7905.694150420918,3579.271183792976,3556.051117430972,3597.3591055557517
8089.841423240675,3594.30566154803,3571.8982376502145,3611.798845462409
8278.278037064745,3608.69182555252,3587.06588116164,3625.612994450571
8471.10390348003,3622.4561214564246,3601.5813574273348,3638.8273740699433
8668.421261313257,3635.62407877946,3615.4710772862973,3651.4668766690193
8870.334730839351,3648.220323182861,3628.760558153753,3663.555482766772
9076.951369252498,3660.2685914532585,3641.47443300473,3675.1162803760258
9288.380727429276,3671.7917486800575,3653.6364624772077,3686.1714858616624
9504.73490801399,3682.811807183242,3665.269549525931,3696.7424659784574
9726.128624856974,3693.3499468131827,3676.395756140027,3706.849760786141
9952.679263837388,3703.4265362995197,3687.0363217077975,3716.513107184576
10184.506945102774,3713.061155373837,3697.2116826724227,3725.751462850868
10421.734586758339,3722.2726174318077,3706.941493174139,3734.583030393654
10664.487970039769,3731.078992535761,3716.2446464190625,3743.0252815686067
10912.8958060041,3739.4976305889554,3725.13929655322,3751.0949814239075
11167.089803774028,3747.5451845390485,3733.6428808534633,3758.8082122658598
11427.204740371824,3755.2376334907817,3741.772142075504,3766.180397353076
11693.378532179902,3762.590305627377,3749.543150823922,3773.226324243585
11965.752308065905,3769.6179008569625,3756.971327830314,3779.9601677327937
12244.470484211099,3776.3345131147807,3764.071466044102,3786.395512331988
12529.680840681749,3782.7536522644573,3770.8577524564143,3792.5453742471814
12821.534599784061,3788.888265552416,3777.3437895911557,3798.42222282677
13120.186506244254,3794.750758578762,3783.5426166092584,3804.03800145397
13425.794909256256,3800.353015755971,3789.4667299822777,3809.404147866375
13738.52184644055,3805.7064202336287,3795.128103700403,3814.5316138904777
14058.533129758662,3810.821873273323,3800.53820898746,3819.430884583692
14385.998433428857,3815.7098130629033,3805.7080335021365,3824.111996780386
14721.091383889656,3820.380232963594,3810.648100010178,3828.5845570418614
15063.989651858874,3824.842699187227,3815.3684845172643,3832.857759013039
15414.875046536983,3829.106367903881,3819.8788338562586,3836.940400191095
15773.933612004757,3833.1800017830024,3824.1883827262036,3840.8408981132343
16141.355725866311,3837.0719859732044,3828.3059701833326,3844.5673059725436
16517.33620018982,3840.7903435278995,3832.2400555869567,3848.127327672204
16902.074384799464,3844.342750285426,3835.9987340052344,3851.528332329491
17295.77427297333,3847.736549213642,3839.589751087618,3854.777368241877
17698.64460960336,3850.9787642299752,3843.020517412263,3857.881176328282
18110.899001874663,3854.076113508796,3846.2981223179536,3860.846203059049
18532.756032522848,3857.0350222885704,3849.4293472310487,3863.6786128886124
18964.4393757295,3859.861635191824,3852.420678498813,3866.384300205121
19406.177915717195,3862.561828071268,3855.2783197410913,3868.9689008114246
19858.205868106936,3865.141219395672,3858.008203732799,3871.4378029519285
20320.762904102376,3867.6051811893085,3860.616003830029,3873.796157899792
20794.094277566666,3869.9588495387165,3863.1071449528654,3876.0488901189196
21278.4509550593,3872.2071346806724,3865.486814138069,3878.200707015009
21774.0897489019,3874.354730685077,3867.7599706749606,3880.256108289801
22281.27345334352,3876.406124746393,3869.9313558377285,3882.2193949124417
22800.270983897623,3878.3656060970934,3872.00550222741,3884.094677721626
23331.35751992465,3880.2372745563753,3873.986742736608,3885.885885671884
23874.81465053577,3882.0250487271414,3875.879219149896,3887.5967737371566
24430.930523895135,3883.7326738540273,3877.6868903926456,3889.2309304844216
24999.999999999865,3885.3637293549314,3879.413540440799,3890.791785329822
25582.324807018715,3886.92163603823,3881.0627859038536,3892.282615489452
26178.213701272347,3888.4096630175513,3882.6380832930595,3893.7065526365695
26787.982630940016,3889.8309343356464,3884.142735986552,3895.0665892766683
27411.954903579477,3891.1884353085916,3885.5799009028333,3896.3655848515323
28050.461357548935,3892.4850186012004,3886.9525948937267,3897.60627158296
28703.840537421915,3893.7234100442297,3888.263700867605,3898.7912600666223
29372.43887348808,3894.906214203583,3889.5159736533815,3899.9230446260417
30056.61086543516,3896.03591971142,3890.7120456154407,3901.0040084364396
30756.71927030937,3897.1149043687587,3891.854432029344,3902.036428427812
31473.135294854008,3898.1454400287953,3892.9455362278745,3903.022479976271
32206.23879232817,3899.1296972698615,3893.9876545266084,3903.964241392383
32956.41846390999,3900.0697498666595,3894.9829809379444,3904.863698214888
33724.07206479115,3900.967579068058,3895.93361168219,3905.7227473178946
34509.60661507193,3901.8250776894383,3896.8415495039844,3906.543200839356
35313.43861556866,3902.6440540273206,3897.7087078020904,3907.3267899382754
36135.994268647984,3903.426235603675,3898.5369145802333,3908.0751683879057
36977.70970420498,3904.173272747043,3899.327916226449,3908.789916011807
37839.03121090499,3904.886742017351,3900.0833811280518,3909.472541969471
38720.415472811816,3905.568149481004,3900.8049031291516,3910.12448789788
39622.32981152761,3906.218933842599,3901.4940048372846,3910.747130915141
40545.252433973015,3906.8404694393585,3902.152140785563,3911.3417864921084
41489.67268593878,3907.4340691041184,3902.7807004564397,3911.909711197635
42456.091311543365,3908.000986902513,3903.3810111729613,3912.4521053228873
43445.02071873414,3908.5424207497163,3903.9543408631657,3912.9701153899473
44456.985250972815,3909.0595149119363,3904.5019007030214,3913.4648365496687
45492.52146524932,3909.553362397622,3905.0248476431366,3913.937314873604
46552.17841657141,3910.0250072431236,3905.524286824197,3914.388549544581
47636.517949080895,3910.4754466973964,3906.0012738859514,3914.819494950324
48746.11499395084,3910.905633310103,3906.4568171743085,3915.231062684359
49881.55787422169,3911.316476927319,3906.8918798509676,3915.624123458216
51043.44861673792,3911.708846598848,3907.3073819098013,3915.999508928816
52232.40327135067,3912.0835724010167,3907.70420210402,3916.3580134447525
53449.05223755547,3912.441447178613,3908.0831797880346,3916.700395715005
54694.04059873847,3912.7832282095205,3908.4451166776744,3917.0273804034928
55968.02846420814,3913.1096387954235,3908.790778532385,3917.3396596527223
57271.69131919397,3913.4213697818195,3909.1208967627617,3917.6378945396486
58605.720382997686,3913.7190810104516,3909.436169966719,3917.9227164667145
59970.82297548688,3914.0034027071183,3909.7372653974026,3918.1947284909534
61367.72289212537,3914.2749368077093,3910.0248203658543,3918.4545065938555
