Frequency,Nominal,Min,Max
250,-107.83930913609244,-108.80470682893878,-106.86379058911494
255.82324807018853,-108.21009438914746,-109.19171550837771,-107.21765090229532
261.7821370127249,-108.58665686465999,-109.58451514136452,-107.57723789608734
267.8798263094016,-108.96896308692143,-109.98305493118882,-107.94253425332094
274.11954903579624,-109.35697045553253,-110.38727405420146,-108.3135144717631
280.50461357549085,-109.7506267719265,-110.79710118744093,-108.6901443988229
287.03840537422064,-110.14986976197163,-111.21245403673119,-109.0723807585551
293.7243887348823,-110.5546265963624,-111.63323886727768,-109.46017067229913
300.5661086543532,-110.96481341062244,-112.05935003889897,-109.85345117444571
307.5671927030953,-111.3803348266936,-112.49066954814825,-110.25214872495518
314.7313529485417,-111.80108347817672,-112.92706657964631,-110.65617872037546
322.0623879232834,-112.22693954140502,-113.36839706903179,-111.0654450052422
329.56418463910165,-112.65777027461377,-113.81450327995383,-111.47983938584905
337.2407206479133,-113.09342956752678,-114.26521339757448,-111.89924114848539
345.0960661507211,-113.53375750372732,-114.72034114099196,-112.3235165843077
353.13438615568845,-113.97857993818575,-115.17968539697354,-112.7525185230906
361.35994268648176,-114.42770809230218,-115.6430298772686,-113.18608587813578
369.7770970420517,-114.88093816875318,-116.11014280164571,-113.62404320462424
378.3903121090519,-115.3380509883493,-116.5807766086063,-114.06620027368403
387.20415472812016,-115.79881165095331,-117.05466769549032,-114.51235166438737
396.22329811527817,-116.26296922233121,-117.5315361894098,-114.96227637578967
405.4525243397323,-116.73025644856499,-118.01108575008749,-115.41573746099235
414.89672685938996,-117.20038949936044,-118.49300340529544,-115.8724816850133
424.5609131154359,-117.67306774123892,-118.97695941911196,-116.33223920801322
434.45020718734366,-118.14797354118764,-119.46260719271683,-116.79472329513577
444.5698525097305,-118.62477210088525,-119.94958319685402,-117.25963005386505
454.92521465249564,-119.10311132108029,-120.43750693447122,-117.72663819938866
465.5217841657166,-119.5826216951235,-120.92598093134704,-118.19540884799474
476.3651794908115,-120.06291622999333,-121.41459075178133,-118.66558533798036
487.461149939511,-120.54359039245804,-121.90290503562179,-119.13679307696346
498.81557874221954,-121.02422207723394,-122.3904755520596,-119.60863941381933
510.434486167382,-121.50437159319426,-122.87683726473057,-120.08071353273566
522.3240327135095,-121.98358166278248,-123.36150840172235,-120.55258636609673
534.4905223755576,-122.46137742887021,-123.84399052310904,-121.02381052204541
546.9404059873876,-122.93726646230454,-124.323768577612,-121.49392022167068
559.6802846420844,-123.41073876235481,-124.80031093892366,-121.96243123977918
572.7169131919427,-123.88126674119819,-125.27306941113389,-122.42884084219664
586.0572038299799,-124.3483051824364,-125.74147919154213,-122.89262771143939
599.708229754872,-124.81129116246112,-126.20495877795393,-123.35325185145726
613.677228921257,-125.26964392224369,-126.66290980630764,-123.8101544609386
627.9716078773944,-125.72276467582549,-127.11471680315036,-124.2627577633961
642.5989456922152,-126.17003634041335,-127.55974683610522,-124.71046478091831
657.5669979738448,-126.61082317153274,-127.99734904395704,-125.15265903705317
672.8837009817282,-127.04447028514416,-128.42685402637986,-125.58870417279724
688.5571758345409,-127.47030304695258,-128.84757307156067,-126.01794345806402
704.5957328161127,-127.88762630732775,-129.25879719801668,-126.43969917929171
721.0078757816507,-128.2957234582661,-129.65979598473285,-126.85327188199804
737.8023066665955,-128.69385528661064,-130.04981616128526,-127.25793944506366
754.9879301005031,-129.08125859528295,-130.42807992682702,-127.65295596131028
772.5738581283966,-129.45714456149594,-130.7937829636155,-128.03755039645733
790.5694150420937,-129.82069679774864,-131.14609210707522,-128.41092499578826
808.9841423240695,-130.17106907777864,-131.48414263012364,-128.77225340473277
827.8278037064765,-130.50738268548358,-131.80703509452877,-129.1206784660316
847.1103903480051,-130.82872333999626,-132.11383171628415,-129.45530965210176
866.8421261313277,-131.1341376445085,-132.40355218523652,-129.77522008657442
887.0334730839372,-131.4226289999437,-132.67516887130193,-130.07944310361398
907.6951369252519,-131.69315291699965,-132.92760134036666,-130.36696828743914
928.8380727429297,-131.9446116512658,-133.1597100921429,-130.6367369272798
950.4734908014013,-132.17584807582026,-133.37028941959332,-130.8876368146777
972.6128624856998,-132.38563869371376,-133.55805927471073,-131.1184963003666
995.2679263837414,-132.57268567875556,-133.72165600812133,-131.32807751674278
1018.45069451028,-132.7356078167281,-133.85962182975868,-131.51506865890184
1042.1734586758366,-132.8729302002286,-133.9703928142808,-131.67807520213435
1066.4487970039797,-132.98307250837192,-134.05228524750325,-131.81560991630175
1091.2895806004128,-133.06433567720222,-134.1034800783627,-131.92608151738548
1116.7089803774056,-133.11488673740928,-134.12200520425955,-132.00778177335573
1142.7204740371853,-133.13274156244165,-134.10571527558284,-132.05887085504386
1169.3378532179931,-133.11574523198763,-134.05226865731518,-132.0773606926281
1196.5752308065935,-133.0615496728461,-133.9591011316802,-132.06109606447606
1224.447048421113,-132.96758819145924,-133.8233958659254,-132.0077331073857
1252.9680840681783,-132.83104646028093,-133.642049104347,-131.9147148959878
1282.1534599784097,-132.64882946486875,-133.4116309753878,-131.77924369495133
1312.018650624429,-132.4175238624247,-133.12834073663,-131.59824944212218
1342.5794909256292,-132.13335514951464,-132.78795571903294,-131.368353976477
1373.8521846440588,-131.79213899371672,-132.38577318724535,-131.0858304862051
1405.85331297587,-131.38922606194006,-131.91654432212684,-130.74655762645213
1438.5998433428895,-130.91943969439575,-131.37439958129232,-130.34596775443842
1472.1091383889695,-130.37700585431108,-130.75276484464862,-129.8789887689119
1506.3989651858915,-129.75547496982938,-130.1458843787934,-129.33997914708613
1541.4875046537024,-129.04763563657067,-129.46325054737005,-128.62797913557364
1577.39336120048,-128.24542075609395,-128.6884811863283,-127.79789207215124
1614.1355725866356,-127.3398076762421,-127.81278573406681,-126.8619008590139
1651.7336200189866,-126.32071545788673,-126.8263315313862,-125.80967796907407
1690.207438479951,-125.17690477381173,-125.77839659232508,-124.6297283058073
1729.5774272973376,-123.89588949014443,-124.67587353066415,-123.3093099334523
1769.8644609603411,-122.46387412019125,-123.4416549029537,-121.8162122917067
1811.0899001874714,-120.86573857228255,-122.062818312662,-120.01652692087242
1853.2756032522898,-119.08510141226036,-120.52522391140764,-118.01113672743232
1896.4439375729553,-117.10450546488735,-118.81356681494537,-115.78057566535253
1940.617791571725,-114.90578455035413,-116.91153460589858,-113.305126578127
1985.8205868106993,-112.47068560815865,-114.8021197189571,-110.56583780246073
2032.0762904102435,-109.78183187827423,-112.46814967849936,-107.5460188064195
2079.409427756673,-106.82411154975343,-109.89310849687533,-104.23328951431652
2127.845095505936,-103.58654851680245,-107.06232344973496,-100.62217829067308
2177.4089748901965,-100.06463962803261,-103.96457222914842,-96.71711039348375
2228.127345334359,-96.26301013254535,-100.594111808541,-92.53539948605865
2280.027098389769,-92.1980463208348,-96.95302828338316,-88.1095934352451
2333.1357519924723,-87.89994963274881,-93.0536528970025,-83.4883447675331
2387.4814650535845,-83.41351111379545,-88.92060626656522,-78.73503885570746
2443.0930523895213,-78.7969579963003,-84.59188461541329,-73.92384183962412
2499.9999999999945,-74.1185721711282,-80.11838977391875,-69.13357200778084
2558.2324807018795,-69.4513852079652,-75.5615235652142,-64.44056148604419
2617.821370127243,-64.8668934337601,-70.98892640735923,-59.91206314851044
2678.79826309401,-60.429095088480594,-66.46900263917678,-55.60154565789626
2741.1954903579563,-56.19003151280214,-62.06529214900063,-51.54653204871047
2805.046135754902,-52.187483524321905,-57.8318031464545,-47.76884837877271
2870.3840537422,-48.44481395073812,-53.810084185432345,-44.27660658560827
2937.2438873488168,-44.972449581440685,-50.02826332733168,-41.06707757869667
3005.661086543525,-41.770295988995414,-46.501776131402096,-38.129734349760525
3075.6719270309463,-38.830437744726325,-43.23521712554485,-35.4489967199457
3147.31352948541,-36.139670106187666,-40.22470755740762,-33.00645611092058
3220.6238792328268,-33.681620327957205,-37.460295097253955,-30.78253663056526
3295.6418463910095,-31.43838240608004,-34.92808318681852,-28.757649239628716
3372.4072064791253,-29.391691211841664,-32.61195322735184,-26.912936813912744
3450.960661507203,-27.52371043071946,-30.494859056717484,-25.23071276646281
3531.343861556876,-25.81752165362934,-28.55973848719594,-23.694683112983846
3613.5994268648087,-24.257395719772738,-26.79011352636433,-22.290023205990167
3697.770970420508,-22.828913256006565,-25.170454108317895,-21.00336200885181
3783.9031210905096,-21.51898576578336,-23.68637152320024,-19.822711310734853
3872.041547281192,-20.31581466753889,-22.32469486734346,-18.73736531045479
3962.232981152772,-19.20881443158855,-21.073470897546787,-17.7377872277813
4054.525243397313,-18.188517454653596,-19.92191651141264,-16.81549342691217
4148.9672685938895,-17.24647215195752,-18.860344227845925,-15.962941324443213
4245.609131154349,-16.375141435308034,-17.880074400147148,-15.173424558313656
4344.502071873426,-15.567805810107298,-16.973343098567298,-14.440977088950167
4445.698525097294,-14.818473376495815,-16.133211239836207,-13.760286774232494
4549.252146524945,-14.121797761976904,-15.353478248047256,-13.126618281481338
4655.217841657154,-13.473004226348412,-14.628602004110599,-12.535744816538422
4763.651794908103,-12.867823709062446,-13.953625850510894,-11.983887956049559
4874.611499395098,-12.302434326004757,-13.324112796047118,-11.467664793212455
4988.155787422183,-11.773409693131764,-12.736086691449346,-10.984041602648519
5104.344861673806,-11.277673408585699,-12.18597993722312,-10.530293266258008
5223.24032713508,-10.812459029735765,-11.670587181956776,-10.103967759493388
5344.905223755562,-10.375274915421329,-11.187024433434317,-9.702855064301943
5469.404059873862,-9.963873352584987,-10.732693009995852,-9.324959943692752
5596.802846420829,-9.576223441723128,-10.30524778838243,-8.968478079213599
5727.169131919412,-9.210487271807233,-9.902569245574027,-8.631775134293349
5860.572038299784,-8.864998969423867,-9.522738838749982,-8.313368362356936
5997.082297548704,-8.538246257160583,-9.164017315076308,-8.011910428553623
6136.772289212554,-8.228854201953729,-8.824825588952482,-7.72617515798654
6279.716078773928,-7.935570874988561,-8.50372786720162,-7.455044961873227
6425.989456922136,-7.657254680913031,-8.199416741778418,-7.197499726593017
6575.669979738431,-7.392863145885834,-7.910700004679203,-6.952606979623308
6728.8370098172645,-7.141442981708432,-7.636488970928869,-6.719513171458707
6885.571758345391,-6.902121267405582,-7.375788123010215,-6.4974359342435095
7045.957328161108,-6.6740976105313985,-7.127685914193629,-6.285657196483887
7210.078757816488,-6.456637168580645,-6.891346589251963,-6.083517049247801
7378.023066665936,-6.249064426535556,-6.6660028993459575,-5.890408273068273
7549.879301005011,-6.05075764010238,-6.450949603758942,-5.705771446653524
7725.738581283947,-5.861143865875082,-6.245537664947407,-5.5290905687466925
7905.694150420918,-5.679694509758694,-6.049169055324941,-5.3598891333051375
8089.841423240675,-5.505921333711331,-5.861292104553413,-5.197726605785396
8278.278037064745,-5.339372868412423,-5.681397325090742,-5.042195254898037
8471.10390348003,-5.179631186000204,-5.509013661525133,-4.892917299885805
8668.421261313257,-5.026308992684053,-5.343705115975052,-4.749542338303712
8870.334730839351,-4.879047005950894,-5.1850677076926335,-4.611745023550849
9076.951369252498,-4.7375115853516965,-5.032726730098418,-4.4792229651110596
9288.380727429276,-4.6013925895650285,-4.886334272902289,-4.351694827684071
9504.73490801399,-4.4704014356661395,-4.745566980819537,-4.228898608195339
9726.128624856974,-4.344269339347229,-4.610124023750649,-4.110590072120702
9952.679263837388,-4.222745717295042,-4.479725256225646,-3.9965413327003683
10184.506945102774,-4.105596735082611,-4.354109546475703,-3.886539558485398
10421.734586758339,-3.992603985815659,-4.233033257737054,-3.7803857962986136
10664.487970039769,-3.8835632864253555,-4.116268866355829,-3.677893898127952
10912.8958060041,-3.778283579949687,-4.003603702986592,-3.5788895417328876
11167.089803774028,-3.676585933420484,-3.8948388046906257,-3.4832093358546987
11427.204740371824,-3.5783026220963396,-3.789787867072107,-3.3907000019004823
11693.378532179902,-3.4832762917718387,-3.688276286764152,-3.3012176248337832
11965.752308065905,-3.3913591917679873,-3.590140285610832,-3.2146269667681016
12244.470484211099,-3.302412471982158,-3.4952261088065715,-3.13080083743487
12529.680840681749,-3.216305538060474,-3.403389290062267,-3.049619516295558
12821.534599784061,-3.1329154593630117,-3.3144939775844153,-2.97097022159913
13120.186506244254,-3.052126424931327,-3.2284123152885758,-2.8947466221575295
13425.794909256256,-2.9738292431471827,-3.145023874232728,-2.820848388032073
13738.52184644055,-2.897920881198251,-3.0642151297580784,-2.749180776697672
14058.533129758662,-2.824304040847028,-2.985878980271313,-2.679654251585582
14385.998433428857,-2.7528867673388895,-2.909914304000957,-2.6121841302036253
14721.091383889656,-2.683582088588521,-2.8362255504156124,-2.5466902592994587
15063.989651858874,-2.616307682055897,-2.764722363310161,-2.483096714771334
15414.875046536983,-2.5509855669659314,-2.6953192328498092,-2.4213315242449935
15773.933612004757,-2.4875418197445085,-2.627935174117172,-2.3613264104273632
16141.355725866311,-2.425906310739272,-2.5624934299355293,-2.303016553520908
16517.33620018982,-2.366012460470025,-2.498921195947309,-2.2463403711372774
16902.074384799464,-2.3077970138120723,-2.43714936611058,-2.1912393142897435
17295.77427297333,-2.25119983065866,-2.377112296943021,-2.1376576781693775
17698.64460960336,-2.1961636917377247,-2.3187475889921925,-2.085542426524492
18110.899001874663,-2.1426341183745077,-2.261995884145833,-2.034843028565591
18532.756032522848,-2.09055920509676,-2.2068006775179607,-1.9855113074113315
18964.4393757295,-2.0398894640744865,-2.1531646558958433,-1.9375012991753473
19406.177915717195,-1.9905776804724893,-2.1009797590279145,-1.8907691218703737
19858.205868106936,-1.9425787778721064,-2.050194118978966,-1.845272853375352
20320.762904102376,-1.895849692989404,-2.000761270872481,-1.8009724177743038
20794.094277566666,-1.8503492589817692,-1.9526368259965678,-1.7578294794331113
21278.4509550593,-1.8060380966931806,-1.9057783514651843,-1.7158073442323116
21774.0897489019,-1.7628785132419336,-1.8601452580620668,-1.6748708674216446
22281.27345334352,-1.7208344074031372,-1.8156986956535992,-1.6349863676051168
22800.270983897623,-1.679871181282564,-1.772401455606259,-1.5961215464051541
23331.35751992465,-1.6399556578187882,-1.7302178796903012,-1.558245413390059
23874.81465053577,-1.601056003687457,-1.6891137749925635,-1.5213282158821895
24430.930523895135,-1.5631416572153478,-1.649056334399413,-1.485341373294159
24999.999999999865,-1.5261832609424493,-1.61001406224546,-1.4502574156680652
25582.324807018715,-1.490152598498771,-1.5719567047553682,-1.416049926117853
26178.213701272347,-1.4550225354881936,-1.5348551849352774,-1.3826934868980858
26787.982630940016,-1.4207669640955458,-1.4986815415965753,-1.3501636288435008
27411.954903579477,-1.3873607511546455,-1.4634088722197924,-1.3184367839432982
28050.461357548935,-1.354779689435031,-1.4290112793878882,-1.287490240831845
28703.840537421915,-1.323000451923455,-1.3954638205395433,-1.2573021029939446
29372.43887348808,-1.2920005488929671,-1.3627424608113785,-1.2278512494978941
30056.61086543516,-1.2617582875678532,-1.330824028755578,-1.1991172980833669
30756.71927030937,-1.2322527342070186,-1.299686174735212,-1.1710805704440348
31473.135294854008,-1.2034636784413835,-1.2693073318143528,-1.1437220595564812
32206.23879232817,-1.1753715997130099,-1.239666678973404,-1.1170233989179588
32956.41846390999,-1.1479576356747934,-1.210744106492623,-1.0909668335652487
33724.07206479115,-1.1212035524196442,-1.182520183358191,-1.0655351927565118
34509.60661507193,-1.0950917164178506,-1.1549761265557685,-1.0407118642061173
35313.43861556866,-1.069605068049701,-1.1280937721263078,-1.0164807697705471
36135.994268647984,-1.044727096628721,-1.10185554786768,-0.9928263424906693
36977.70970420498,-1.02044181681829,-1.0762444475742896,-0.969733504902317
37839.03121090499,-0.9967337463512159,-1.051244006714167,-0.9471876485334022
38720.415472811816,-0.9735878849682873,-1.0268382794504907,-0.9251746145114688
39622.32981152761,-0.9509896944976802,-1.0030118169207343,-0.9036806752109521
40545.252433973015,-0.9289250800025152,-0.9797496466929597,-0.882692516874216
41489.67268593878,-0.9073803719289927,-0.9570372533242066,-0.8621972231452059
42456.091311543365,-0.8863423091921037,-0.9348605599512388,-0.8421822594585084
43445.02071873414,-0.865798023140335,-0.9132059108487472,-0.8226354582307275
44456.985250972815,-0.8457350223447357,-0.892060054894451,-0.8035450048046311
45492.52146524932,-0.8261411781614743,-0.8714101298848123,-0.7848994240998457
46552.17841657141,-0.8070047110204481,-0.8512436476488685,-0.7666875679271224
47636.517949080895,-0.7883141773957734,-0.831548479911216,-0.7488986029259649
48746.11499395084,-0.7700584574167813,-0.8123128448585392,-0.7315219990880963
49881.55787422169,-0.752226743081185,-0.7935252943671461,-0.7145475188319652
51043.44861673792,-0.7348085270343867,-0.7751747018517083,-0.697965206595436
52232.40327135067,-0.7177935918814344,-0.7572502506982927,-0.6817653789163328
53449.05223755547,-0.7011720000002956,-0.7397414232469162,-0.6659386149722746
54694.04059873847,-0.6849340838271688,-0.7226379902914417,-0.6504757475531637
55968.02846420814,-0.6690704365865418,-0.7059300010665263,-0.6353678544415241
57271.69131919397,-0.653571903440337,-0.6896077736934518,-0.6206062501773364
58605.720382997686,-0.6384295730323589,-0.6736618860584733,-0.6061824781856364
59970.82297548688,-0.6236347694055403,-0.6580831670989562,-0.5920883032465124
61367.72289212537,-0.6091790442712068,-0.6428626884742975,-0.5783157042884001
