Frequency,Nominal,Min,Max
250,2.6846258135793914e-8,2.6760253011195788e-8,2.6928012540910898e-8
255.82324807018853,2.684966725772983e-8,2.675969067546009e-8,2.693561871999489e-8
261.7821370127249,2.685324052722517e-8,2.6758710878811322e-8,2.6943586803338458e-8
267.8798263094016,2.685698601230112e-8,2.675769173842838e-8,2.6951934177179964e-8
274.11954903579624,2.6860912192679203e-8,2.6756632044649166e-8,2.6960679078806625e-8
280.50461357549085,2.6865027982136868e-8,2.675553059086258e-8,2.696984063968713e-8
287.03840537422064,2.6869342752189534e-8,2.6754386179141264e-8,2.6979438930923855e-8
293.7243887348823,2.687386635718578e-8,2.675319762662596e-8,2.6989495011161237e-8
300.5661086543532,2.6878609160909188e-8,2.6751963772737605e-8,2.7000030977095005e-8
307.5671927030953,2.6883582064786576e-8,2.6750683487300252e-8,2.7011070016737264e-8
314.7313529485417,2.688879653780976e-8,2.6749355679664763e-8,2.7022636465602212e-8
322.0623879232834,2.6894264648285564e-8,2.6747979308931457e-8,2.7034755865988233e-8
329.56418463910165,2.6899999097536978e-8,2.6746553395377448e-8,2.7047455029544106e-8
337.2407206479133,2.6906013255687434e-8,2.674507703320423e-8,2.7060762103319296e-8
345.0960661507211,2.691232119966923e-8,2.674354940472965e-8,2.707470663951219e-8
353.13438615568845,2.6918937753607934e-8,2.6741969796159403e-8,2.708931966914429e-8
361.35994268648176,2.6925878531744623e-8,2.6740337615083253e-8,2.7104633779903858e-8
369.7770970420517,2.6933159984070144e-8,2.6738652409853376e-8,2.712068319841981e-8
378.3903121090519,2.6940799444857824e-8,2.673691389101392e-8,2.7137503877243385e-8
387.20415472812016,2.694881518429406e-8,2.6735121954964304e-8,2.715513358683519e-8
396.22329811527817,2.6957226463420984e-8,2.673327671005215e-8,2.7173612012875276e-8
405.4525243397323,2.6966053592619774e-8,2.6731378505306648e-8,2.7192980859235785e-8
414.89672685938996,2.6975317993880297e-8,2.672942796203792e-8,2.721328395697939e-8
424.5609131154359,2.6985042267118745e-8,2.6727426008544652e-8,2.7234567379771582e-8
434.45020718734366,2.6995250260824412e-8,2.6725373918188502e-8,2.7256879566121956e-8
444.5698525097305,2.7005967147334982e-8,2.672327335111179e-8,2.7280271448898048e-8
454.92521465249564,2.7017219503061086e-8,2.67211263998932e-8,2.7304796592585914e-8
465.5217841657166,2.702903539400197e-8,2.671893563945512e-8,2.7330511338804237e-8
476.3651794908115,2.704144446691708e-8,2.6716704181556164e-8,2.7357474960613253e-8
487.461149939511,2.705447804654299e-8,2.671443573422271e-8,2.738574982619646e-8
498.81557874221954,2.7068169239269164e-8,2.671213466649376e-8,2.741540157253219e-8
510.434486167382,2.7082553043713704e-8,2.670980607887525e-8,2.7446499289713098e-8
522.3240327135095,2.7097666468666756e-8,2.6707455879921134e-8,2.7479115716614763e-8
534.4905223755576,2.7113548658898293e-8,2.6705090869380395e-8,2.751332744866048e-8
546.9404059873876,2.7130241029356246e-8,2.67027188283712e-8,2.7549215158476327e-8
559.6802846420844,2.7147787408310787e-8,2.6700348617064878e-8,2.7586863830280042e-8
572.7169131919427,2.7166234190031714e-8,2.669799028038372e-8,2.7626363008898483e-8
586.0572038299799,2.71856304976162e-8,2.6695655162237616e-8,2.7667807064359983e-8
599.708229754872,2.7206028356615053e-8,2.6693356028843987e-8,2.7711295473060973e-8
613.677228921257,2.7227482880135208e-8,2.6691107201694183e-8,2.775693311655854e-8
627.9716078773944,2.7250052466124874e-8,2.6688924700746583e-8,2.780483059909223e-8
642.5989456922152,2.7273799007573492e-8,2.6686826398440917e-8,2.785510458498692e-8
657.5669979738448,2.72987881163815e-8,2.6684832185140362e-8,2.790787815713316e-8
672.8837009817282,2.73250893616726e-8,2.6682964146616496e-8,2.7963281197778928e-8
688.5571758345409,2.7352776523331916e-8,2.6681246754195428e-8,2.8021450792895066e-8
704.5957328161127,2.738192786155484e-8,2.667970706818171e-8,2.8082531661389673e-8
721.0078757816507,2.741262640318065e-8,2.667837495516717e-8,2.8146676610442388e-8
737.8023066665955,2.7444960245556856e-8,2.667728331981298e-8,2.8214047018196976e-8
754.9879301005031,2.7479022878630503e-8,2.66764683516623e-8,2.8284813344984576e-8
772.5738581283966,2.7514913525883013e-8,2.6675969787494406e-8,2.8359155674135218e-8
790.5694150420937,2.75527375046078e-8,2.667583118966394e-8,2.8437264283259345e-8
808.9841423240695,2.759260660585975e-8,2.6676100240775166e-8,2.8519340246620423e-8
827.8278037064765,2.7634639494170506e-8,2.667682905491161e-8,2.8605596068850952e-8
847.1103903480051,2.767896212679672e-8,2.6678074505464886e-8,2.8696256349749258e-8
866.8421261313277,2.772570819182674e-8,2.667989856936736e-8,2.8791558479187918e-8
887.0334730839372,2.7775019563872128e-8,2.668236868721059e-8,2.889175336020558e-8
907.6951369252519,2.7827046775266158e-8,2.668555813829563e-8,2.8997106157059528e-8
928.8380727429297,2.7881949499614186e-8,2.6689546429076233e-8,2.910789706327829e-8
950.4734908014013,2.7939897043099324e-8,2.669441969266834e-8,2.9224422082428515e-8
972.6128624856998,2.8001068837023667e-8,2.6700271096040336e-8,2.9346993811203575e-8
995.2679263837414,2.8065654922497383e-8,2.670720125007632e-8,2.9475942210296572e-8
1018.45069451028,2.8133856414763092e-8,2.6715318615793803e-8,2.9611615342991904e-8
1042.1734586758366,2.820588593007217e-8,2.6724739897431863e-8,2.9754380054033557e-8
1066.4487970039797,2.8281967951930332e-8,2.6735590409684052e-8,2.9904622551484075e-8
1091.2895806004128,2.836233910538682e-8,2.6748004401734565e-8,3.006274884113886e-8
1116.7089803774056,2.844724829716749e-8,2.6762125314573404e-8,3.022918494548173e-8
1142.7204740371853,2.853695666492627e-8,2.6778105939790963e-8,3.0404376815647286e-8
1169.3378532179931,2.8631737259485873e-8,2.679610843698783e-8,3.058878981335589e-8
1196.5752308065935,2.873187435801368e-8,2.6816304152162442e-8,3.07829075975738e-8
1224.447048421113,2.8837662271454546e-8,2.6838873159736453e-8,3.098723019404617e-8
1252.9680840681783,2.8949403463319752e-8,2.6864003424646418e-8,3.120227094993432e-8
1282.1534599784097,2.9067405735276186e-8,2.689188944606071e-8,3.142855197398748e-8
1312.018650624429,2.9191978152849468e-8,2.6922730198027365e-8,3.1666597526262935e-8
1342.5794909256292,2.9323425275351032e-8,2.695672612114552e-8,3.191692463886471e-8
1373.8521846440588,2.946203910932363e-8,2.699407483857823e-8,3.2180030005464544e-8
1405.85331297587,2.960808801345321e-8,2.7034965163512427e-8,3.245637185315586e-8
1438.5998433428895,2.9761801531331117e-8,2.707956882614462e-8,3.274634508110489e-8
1472.1091383889695,2.992334979997416e-8,2.7128029167347726e-8,3.3050247386778045e-8
1506.3989651858915,3.009281575713839e-8,2.7180445812536937e-8,3.3368233367833404e-8
1541.4875046537024,3.0270157828097234e-8,2.7236854040653536e-8,3.370025264976956e-8
1577.39336120048,3.045516009305449e-8,2.729719718695624e-8,3.404596691500179e-8
1614.1355725866356,3.0647366108111005e-8,2.73612899537198e-8,3.4404639287166506e-8
1651.7336200189866,3.0845991584893645e-8,2.7428769945920926e-8,3.4774987893141687e-8
1690.207438479951,3.104981007986903e-8,2.7499034110991043e-8,3.515499372409053e-8
1729.5774272973376,3.1257004841616014e-8,2.7571156085354047e-8,3.554165147716956e-8
1769.8644609603411,3.146497930088979e-8,2.764377983591637e-8,3.5930651550496503e-8
1811.0899001874714,3.1670118904121297e-8,2.7714984631947104e-8,3.631598301028429e-8
1853.2756032522898,3.1867499021130236e-8,2.7782116655478495e-8,3.668945321850742e-8
1896.4439375729553,3.2050539005271214e-8,2.784158407141742e-8,3.704013310594893e-8
1940.617791571725,3.221061336275039e-8,2.7888616101642325e-8,3.7353762227288806e-8
1985.8205868106993,3.23366502725294e-8,2.791699398650097e-8,3.7612189784409304e-8
2032.0762904102435,3.2414778339856146e-8,2.79187744775355e-8,3.7792990182589906e-8
2079.409427756673,3.2428125788793074e-8,2.788404653402177e-8,3.786947111871199e-8
2127.845095505936,3.235692848444277e-8,2.780079006777562e-8,3.781137002653784e-8
2177.4089748901965,3.217914976871924e-8,2.764799758678956e-8,3.758656683647004e-8
2228.127345334359,3.187182542841115e-8,2.740448408967611e-8,3.716405578222102e-8
2280.027098389769,3.141327482218617e-8,2.7063029699312312e-8,3.651814068836168e-8
2333.1357519924723,3.078611942071381e-8,2.660855201187244e-8,3.5633331681048525e-8
2387.4814650535845,2.998072089688652e-8,2.6029248596684496e-8,3.4508858895847955e-8
2443.0930523895213,2.8998284996568048e-8,2.531898270894267e-8,3.3161385566230456e-8
2499.9999999999945,2.7852671799218942e-8,2.447942407342743e-8,3.162473433076834e-8
2558.2324807018795,2.6570117747035186e-8,2.3493959967193897e-8,2.994631480696913e-8
2617.821370127243,2.5186657174105742e-8,2.2398337297007578e-8,2.8184872579996506e-8
2678.79826309401,2.3743802224534637e-8,2.1236079735299714e-8,2.6473930136426948e-8
2741.1954903579563,2.2283603514638546e-8,2.0010045853337158e-8,2.487569935904507e-8
2805.046135754902,2.0844287218726214e-8,1.8704622770934054e-8,2.3291157903906187e-8
2870.3840537422,1.9457276663013053e-8,1.746127494228376e-8,2.1749717855108657e-8
2937.2438873488168,1.8145832904223677e-8,1.6297532347974245e-8,2.0298072846550506e-8
3005.661086543525,1.6925079547857965e-8,1.5223719222716935e-8,1.8969701161506288e-8
3075.6719270309463,1.580294967905593e-8,1.4244043318285086e-8,1.7720995487512147e-8
3147.31352948541,1.4781583768360558e-8,1.335796679462752e-8,1.656303605385203e-8
3220.6238792328268,1.3858818886423594e-8,1.2561572645650857e-8,1.5500816884819496e-8
3295.6418463910095,1.3029549959203608e-8,1.1847485056384471e-8,1.4534576263855999e-8
3372.4072064791253,1.2286861024503146e-8,1.1208705144065542e-8,1.3661110203858602e-8
3450.960661507203,1.1622902432493876e-8,1.0639878357539678e-8,1.2874925516491969e-8
3531.343861556876,1.102953273642818e-8,1.0132596728132202e-8,1.2169175175486227e-8
3613.5994268648087,1.0498762378017841e-8,9.67904594047563e-9,1.1536372207591332e-8
3697.770970420508,1.002304035326344e-8,9.272139309068237e-9,1.0968905864199107e-8
3783.9031210905096,9.595422053805864e-9,8.905569057990675e-9,1.0459394334177092e-8
3872.041547281192,9.209650710966874e-9,8.573801882959374e-9,1.0000909249607483e-8
3962.232981152772,8.860178554400078e-9,8.272039205214125e-9,9.587103718877261e-9
4054.525243397313,8.542147939750365e-9,7.996157070039893e-9,9.212270481475949e-9
4148.9672685938895,8.251347668355185e-9,7.742636276239705e-9,8.87135147953645e-9
4245.609131154349,7.984155589069674e-9,7.508489932811088e-9,8.559915327446233e-9
4344.502071873426,7.737475285235737e-9,7.291193082539618e-9,8.274115058116455e-9
4445.698525097294,7.508672108760376e-9,7.088572619712218e-9,8.010635163367472e-9
4549.252146524945,7.2955119139329404e-9,6.898843160951497e-9,7.766634274206838e-9
4655.217841657154,7.096104451902422e-9,6.7205692433501985e-9,7.539687760476657e-9
4763.651794908103,6.908852406255279e-9,6.552474536444413e-9,7.327732974848904e-9
4874.611499395098,6.732406386484832e-9,6.393484429329415e-9,7.1290187308463185e-9
4988.155787422183,6.5656257691465045e-9,6.242692482948334e-9,6.9420598025002835e-9
5104.344861673806,6.407545020710353e-9,6.0993320549415874e-9,6.765596688373403e-9
5223.24032713508,6.2573450000807545e-9,5.9627524716418935e-9,6.59856053045342e-9
5344.905223755562,6.114328683327689e-9,5.83239913176818e-9,6.440042866180919e-9
5469.404059873862,5.977900749574082e-9,5.707796967231458e-9,6.2892697780697215e-9
5596.802846420829,5.847550494679905e-9,5.5885367428193626e-9,6.145579958320904e-9
5727.169131919412,5.722837584181867e-9,5.474263738492102e-9,6.008406202068198e-9
5860.572038299784,5.603380209440489e-9,5.364668419567065e-9,5.877259865586558e-9
5997.082297548704,5.488845265076178e-9,5.2594787577631824e-9,5.751717863223051e-9
6136.772289212554,5.3789402178947494e-9,5.1584539181989956e-9,5.631411821076202e-9
6279.716078773928,5.273406385588405e-9,5.061379073350397e-9,5.516019051446841e-9
6425.989456922136,5.172013386600336e-9,4.968061144686739e-9,5.405255056672283e-9
6575.669979738431,5.074554560389341e-9,4.8783253065964595e-9,5.298867312353234e-9
6728.8370098172645,4.980843190064172e-9,4.7920121158461804e-9,5.1966301173116715e-9
6885.571758345391,4.890709387343481e-9,4.70897515381994e-9,5.098340330583722e-9
7045.957328161108,4.803997523513592e-9,4.6290790887857255e-9,5.0038138444184134e-9
7210.078757816488,4.720564110016292e-9,4.55219808202496e-9,4.912882666891831e-9
7378.023066665936,4.640276049006377e-9,4.478214475368629e-9,4.8253925087316205e-9
7549.879301005011,4.563009188143969e-9,4.407017708979812e-9,4.741200786694448e-9
7725.738581283947,4.4886471254534465e-9,4.338503427509814e-9,4.660174970764854e-9
7905.694150420918,4.417080219662594e-9,4.272572740378156e-9,4.582191214940187e-9
8089.841423240675,4.348204769355611e-9,4.209131608174989e-9,4.5071332217915535e-9
8278.278037064745,4.281922330808923e-9,4.1480903323006105e-9,4.434891299662899e-9
8471.10390348003,4.2181391497635345e-9,4.089363129142618e-9,4.365361578567558e-9
8668.421261313257,4.156765686819808e-9,4.0328677735133795e-9,4.2984453568033136e-9
8870.334730839351,4.097716219784817e-9,3.978525298867315e-9,4.23404855523782e-9
9076.951369252498,4.040908509296843e-9,3.92625974410192e-9,4.172081260288984e-9
9288.380727429276,3.986263516510249e-9,3.8759979386120635e-9,4.11245733998541e-9
9504.73490801399,3.93370516364171e-9,3.8276693187900454e-9,4.0550941202623135e-9
9726.128624856974,3.883160129833752e-9,3.781205770406982e-9,3.999912110930266e-9
9952.679263837388,3.834557676148541e-9,3.736541492325465e-9,3.946834772632462e-9
10184.506945102774,3.78782949461693e-9,3.693612877821145e-9,3.895788317651511e-9
10421.734586758339,3.7429095771789e-9,3.6523584104661938e-9,3.8467015386971415e-9
10664.487970039769,3.6997341010977357e-9,3.612718572078409e-9,3.7995056608503544e-9
10912.8958060041,3.6582413280414016e-9,3.574635760689342e-9,3.754134212696972e-9
11167.089803774028,3.6183715145246938e-9,3.5380542168514813e-9,3.710522913387727e-9
11427.204740371824,3.5800668318153605e-9,3.5029199569039444e-9,3.6686095729398327e-9
11693.378532179902,3.5432712937425217e-9,3.469180712060591e-9,3.6283340035691467e-9
11965.752308065905,3.5079306911202204e-9,3.436785872384181e-9,3.5896379402309827e-9
12244.470484211099,3.47399253172367e-9,3.405686434873602e-9,3.552464968866701e-9
12529.680840681749,3.4414059849400577e-9,3.3758349550249227e-9,3.5167604611149e-9
12821.534599784061,3.410121830366734e-9,3.3471855013367277e-9,3.4824715144608595e-9
13120.186506244254,3.38009240975377e-9,3.3196936123202783e-9,3.4495468969741297e-9
13425.794909256256,3.3512715817898085e-9,3.2933162556492246e-9,3.4179369959290746e-9
13738.52184644055,3.3236146793141556e-9,3.2680117891448347e-9,3.387593769722295e-9
14058.533129758662,3.297078468607488e-9,3.2437399233433733e-9,3.3584707025989925e-9
14385.998433428857,3.2716211104709223e-9,3.2204616854343648e-9,3.3305227617813447e-9
14721.091383889656,3.2472021228508805e-9,3.198139384393549e-9,3.3037063566588573e-9
15063.989651858874,3.223782344806944e-9,3.17673657716366e-9,3.2779792997563098e-9
15414.875046536983,3.2013239016529983e-9,3.156218035760809e-9,3.253300769240951e-9
15773.933612004757,3.17979017112991e-9,3.1365497152049708e-9,3.2296312727692917e-9
16141.355725866311,3.1591457504913793e-9,3.117698722190639e-9,3.2069326125060173e-9
16517.33620018982,3.1393564244044584e-9,3.099633284428525e-9,3.1851678511747237e-9
16902.074384799464,3.1203891335830563e-9,3.082322720601872e-9,3.1643012790231438e-9
17295.77427297333,3.102211944087004e-9,3.065737410891639e-9,3.1442983816048286e-9
17698.64460960336,3.084794017231512e-9,3.049848768033984e-9,3.1251258082958687e-9
18110.899001874663,3.068105580062202e-9,3.0346292088812625e-9,3.1067513414792442e-9
18532.756032522848,3.052117896359829e-9,3.0200521264443396e-9,3.0891438663414265e-9
18964.4393757295,3.0368032381463474e-9,3.0060918623996434e-9,3.0722733412362013e-9
19406.177915717195,3.022134857670525e-9,2.992723680049057e-9,3.056110768579429e-9
19858.205868106936,3.008086959856688e-9,2.979923737724727e-9,3.0406281662461042e-9
20320.762904102376,2.9946346752049115e-9,2.967669062634077e-9,3.025798539447416e-9
20794.094277566666,2.981754033134795e-9,2.955937525143022e-9,3.0115958530711596e-9
21278.4509550593,2.9694219357682216e-9,2.9447078134974754e-9,2.9979950044733322e-9
21774.0897489019,2.957616132149116e-9,2.9339594089849474e-9,2.9849717967128426e-9
22281.27345334352,2.9463151929003737e-9,2.9236725615392763e-9,2.97250291222438e-9
22800.270983897623,2.93549848531977e-9,2.9138282657924337e-9,2.960565886927288e-9
23331.35751992465,2.9251461489179435e-9,2.904408237577979e-9,2.9491390847703916e-9
23874.81465053577,2.9152390714024803e-9,2.8953948908910314e-9,2.9382016727144803e-9
24430.930523895135,2.905758865112687e-9,2.8867713153097073e-9,2.9277335961554515e-9
24999.999999999865,2.8966878439100093e-9,2.8785212538829306e-9,2.917715554792085e-9
25582.324807018715,2.88800900052915e-9,2.8706290814891473e-9,2.908128978943052e-9
26178.213701272347,2.879705984394825e-9,2.863079783670166e-9,2.898956006318151e-9
26787.982630940016,2.871763079908856e-9,2.8558589359437494e-9,2.8901794592488887e-9
27411.954903579477,2.8641651852118538e-9,2.8489526835979794e-9,2.8817828223834623e-9
28050.461357548935,2.8568977914232786e-9,2.8423477219697656e-9,2.873750220850954e-9
28703.840537421915,2.8499469623629983e-9,2.8360312772090625e-9,2.86606639889916e-9
29372.43887348808,2.843299314756808e-9,2.8299910875296753e-9,2.8587166990099877e-9
30056.61086543516,2.8369419989276358e-9,2.8242153849466717e-9,2.851687041495747e-9
30756.71927030937,2.8308626799733936e-9,2.8186928774996546e-9,2.8449639045789688e-9
31473.135294854008,2.825049519431636e-9,2.8134127319603656e-9,2.8385343049576977e-9
32206.23879232817,2.819491157430373e-9,2.8083645570222996e-9,2.832385778857406e-9
32956.41846390999,2.8141766953236416e-9,2.803538386969247e-9,2.826506363569881e-9
33724.07206479115,2.8090956788095994e-9,2.798924665819e-9,2.8208845794786794e-9
34509.60661507193,2.8042380815281847e-9,2.7945142319377075e-9,2.8155094125698988e-9
35313.43861556866,2.7995942891346637e-9,2.790298303119764e-9,2.8103702974262612e-9
36135.994268647984,2.7951550838446285e-9,2.7862684621274906e-9,2.805457100701715e-9
36977.70970420498,2.790911629445461e-9,2.7824166426842845e-9,2.8007601050730633e-9
37839.03121090499,2.7868554567685305e-9,2.7787351159144297e-9,2.7962699936643523e-9
38720.415472811816,2.7829784496159555e-9,2.7752164772222505e-9,2.7919778349391725e-9
39622.32981152761,2.779272831135108e-9,2.7718536336029054e-9,2.7878750680553193e-9
40545.252433973015,2.7757311506336735e-9,2.768639791376712e-9,2.783953488675742e-9
41489.67268593878,2.772346270827567e-9,2.7655684443385363e-9,2.7802052352291086e-9
42456.091311543365,2.7691113555136454e-9,2.762633362313591e-9,2.7766227756129006e-9
43445.02071873414,2.7660198576588408e-9,2.7598285801105943e-9,2.7731988943314177e-9
44456.985250972815,2.7630655078970146e-9,2.7571483868631733e-9,2.7699266800607736e-9
45492.52146524932,2.7602423034245694e-9,2.7545873157501455e-9,2.766799513632516e-9
46552.17841657141,2.7575444972857174e-9,2.75214013408522e-9,2.7638110564272845e-9
47636.517949080895,2.7549665880380264e-9,2.749801833766551e-9,2.760955239169594e-9
48746.11499395084,2.752503309788825e-9,2.7475676220765505e-9,2.7582262511146407e-9
49881.55787422169,2.7501496225929077e-9,2.745432912822278e-9,2.7556185296178524e-9
51043.44861673792,2.7479007032019217e-9,2.743393317806797e-9,2.753126750077753e-9
52232.40327135067,2.745751936155787e-9,2.741444638621843e-9,2.7507458162425948e-9
53449.05223755547,2.7436989052065043e-9,2.7395828587522746e-9,2.7484708508711663e-9
54694.04059873847,2.7417373850647227e-9,2.737804135982772e-9,2.74629718673812e-9
55968.02846420814,2.7398633334594722e-9,2.7361047950973944e-9,2.7442203579741828e-9
57271.69131919397,2.738072883501575e-9,2.734481320862721e-9,2.7422360917315794e-9
58605.720382997686,2.7363623363412924e-9,2.7329303512853614e-9,2.7403403001650992e-9
59970.82297548688,2.7347281541109007e-9,2.7314486711348535e-9,2.7385290727192535e-9
61367.72289212537,2.7331669531430082e-9,2.7300332057230378e-9,2.736798668712093e-9
