Frequency,Nominal,Min,Max
250,-22.103003397041533,-23.10956743083905,-21.09724220044605
255.82324807018853,-22.61931548158879,-23.649370881045925,-21.590008670651837
261.7821370127249,-23.147759463018414,-24.201856519887794,-22.094350102547597
267.8798263094016,-23.68862553576287,-24.767327564181404,-22.610543108557565
274.11954903579624,-24.242211205847326,-25.34609485809432,-23.138871252444122
280.50461357549085,-24.808821501702873,-25.938477091930586,-23.67962524854755
287.03840537422064,-25.388769192916598,-26.544801029049445,-24.233103168459365
293.7243887348823,-25.98237501733689,-27.16540174133628,-24.799610655518162
300.5661086543532,-26.589967916980452,-27.800622853673097,-25.37946114754291
307.5671927030953,-27.211885283218972,-28.450816797885324,-25.972976108248194
314.7313529485417,-27.848473211756534,-29.116345076675085,-26.580485267815877
322.0623879232834,-28.50008676794536,-29.79757853808467,-27.20232687313237
329.56418463910165,-29.167090263026534,-30.494897661073768,-27.83884794823618
337.2407206479133,-29.84985754192537,-31.20869285283283,-28.490404565560507
345.0960661507211,-30.54877228327693,-31.93936475850096,-29.157362128598376
353.13438615568845,-31.26422831240818,-32.68732458400378,-29.840095666664237
361.35994268648176,-31.996629928056823,-33.45299443277902,-30.53899014247667
369.7770970420517,-32.746392243668346,-34.236807657214285,-31.254440773342193
378.3903121090519,-33.513941544175616,-35.039209225682626,-31.986853366779975
387.20415472812016,-34.299715659238025,-35.86065610612849,-32.736644671492975
396.22329811527817,-35.104164353993745,-36.701617667229435,-33.504242744662335
405.4525243397323,-35.92774973846398,-37.562576098238075,-34.290087336620665
414.89672685938996,-36.770946696840184,-38.444026848695906,-35.09463029404455
424.5609131154359,-37.63424333798816,-39.34647908930478,-35.91833598290161
434.45020718734366,-38.518141468613685,-40.27045619534567,-36.76168173248915
444.5698525097305,-39.42315709065813,-41.21649625414871,-37.62515830201581
454.92521465249564,-40.34982092462789,-42.185152598242084,-38.50927037130054
465.5217841657166,-41.298678960710056,-43.17699436594586,-39.414537057301985
476.3651794908115,-42.27029303969357,-44.192607091327815,-40.34149245834094
487.461149939511,-43.265241465895826,-45.232593325604675,-41.29068622804668
498.81557874221954,-44.28411965449931,-46.2975732922583,-42.26268418124213
510.434486167382,-45.32754081592571,-47.38818557833961,-43.25806893418813
522.3240327135095,-46.396136680127526,-48.5050878646615,-44.277440581833936
534.4905223755576,-47.490558263953915,-49.64895769783425,-45.32141741497432
546.9404059873876,-48.61147668506123,-50.82049330737983,-46.39063668049503
559.6802846420844,-49.759584026185706,-52.02041447147651,-47.4857553882027
572.7169131919427,-50.93559425398823,-53.24946343523952,-48.607451168086634
586.0572038299799,-52.14024419712017,-54.50840588584057,-49.756423182253506
599.708229754872,-53.37429458865426,-55.7980319892177,-50.93339309621746
613.677228921257,-54.6385311785844,-57.11915749363274,-52.13910611472532
627.9716078773944,-55.933765922730345,-58.472624905908376,-53.374332087855784
642.5989456922152,-57.26083825510124,-59.859304746827775,-54.63986669376411
657.5669979738448,-58.62061645158878,-61.28009689292437,-55.936532705158854
672.8837009817282,-60.01399909378984,-62.73593201273963,-57.26518134740899
688.5571758345409,-61.44191664282352,-64.22777310660102,-58.62669375710105
704.5957328161127,-62.90533313422444,-65.75661716009469,-60.021982550918615
721.0078757816507,-64.4052480063937,-67.32349692270313,-61.45199351591334
737.8023066665955,-65.94269807670008,-68.92948282457496,-62.917707433612165
754.9879301005031,-67.51875968118391,-70.57568504613603,-64.42014205197889
772.5738581283966,-69.13455099596716,-72.26325575727603,-65.96035422105793
790.5694150420937,-70.79123456097125,-73.99339154521181,-67.53944221021506
808.9841423240695,-72.49002002944393,-75.76733605289888,-69.15854822729649
827.8278037064765,-74.23216717018153,-77.58638285311478,-70.81886116281544
847.1103903480051,-76.01898915328019,-79.45187858716598,-72.52161958550369
866.8421261313277,-77.85185615487318,-81.36522640168272,-74.26811501932134
887.0334730839372,-79.73219932172842,-83.32788972229835,-76.05969553638343
907.6951369252519,-81.66151514294236,-85.34139640932129,-77.89776970535408
928.8380727429297,-83.64137028344756,-87.40734334798454,-79.783810940805
950.4734908014013,-85.67340694285541,-89.52740153472831,-81.71936230598028
972.6128624856998,-87.7593488135293,-91.70332173149772,-83.70604182954325
995.2679263837414,-89.9010077240067,-93.93694077252688,-85.74554840639658
1018.45069451028,-92.1002910682915,-96.2301886229001,-87.83966836381659
1042.1734586758366,-94.35921013849737,-98.58509630573295,-89.9902827871928
1066.4487970039797,-96.67988949826446,-101.00380483557025,-92.19937571493232
1091.2895806004128,-99.06457755776513,-103.48857532006735,-94.46904332992257
1116.7089803774056,-101.51565853847143,-106.04598199183297,-96.80150429572565
1142.7204740371853,-104.03566604769115,-108.68033795360712,-99.19911140980193
1169.3378532179931,-106.62729851969021,-111.38975692063997,-101.66436477393115
1196.5752308065935,-109.29343682239936,-114.17729369831808,-104.19992671396318
1224.447048421113,-112.03716437644657,-117.0462258598052,-106.80863871734805
1252.9680840681783,-114.86179018636803,-120.00008058390809,-109.49354069759616
1282.1534599784097,-117.7708752414639,-123.04266564757911,-112.25789293957962
1312.018650624429,-120.76826280393992,-126.17810523482557,-115.10520112745108
1342.5794909256292,-123.85811316102082,-129.41088129722257,-118.0392449059787
1373.8521846440588,-127.04494346923533,-132.74588126109612,-121.0641104727654
1405.85331297587,-130.33367335251603,-136.18845290629,-124.18422773721795
1438.5998433428895,-133.7296769142878,-139.7444672150059,-127.4044126026941
1472.1091383889695,-137.238841761122,-143.4203898655909,-130.72991491596193
1506.3989651858915,-140.8676354717464,-147.22336176272762,-134.16647255986044
1541.4875046537024,-144.62317962001256,-151.1612884580584,-137.72037200596955
1577.39336120048,-148.51333088478498,-155.24293738452798,-141.3985153422988
1614.1355725866356,-152.54676782418773,-159.47804030156436,-145.20849327050766
1651.7336200189866,-156.73308037184958,-163.8773959405333,-149.1586627185653
1690.207438479951,-161.0828567729296,-168.45296415878735,-153.25822638363604
1729.5774272973376,-165.6077591756204,-173.2179374447009,-157.51730949396477
1769.8644609603411,-170.32057399633953,-178.18676774871543,-161.9470260759276
1811.0899001874714,-175.23521598402712,-183.37511570686397,-166.5595226791198
1853.2756032522898,-180.36665514305244,-188.7996749336309,-171.3679814417907
1896.4439375729553,-185.73072309466545,-194.47780643224525,-176.3865561817008
1940.617791571725,-191.3437404966599,-200.4268991264016,-181.6302046675502
1985.8205868106993,-197.22189168062766,-206.66335692042844,-187.11436767401602
2032.0762904102435,-203.38026122551096,-213.20111037832274,-192.85443226453287
2079.409427756673,-209.83144840172358,-220.04957854187842,-198.86490640809896
2127.845095505936,-216.58370312359492,-227.2110859758407,-205.15823111058322
2177.4089748901965,-223.63859921335427,-234.6778931620864,-211.7431754183621
2228.127345334359,-230.98839335270313,-242.429227447775,-218.62281325834203
2280.027098389769,-238.61341067788058,-250.42896297329116,-225.7921830655609
2333.1357519924723,-246.48001256302686,-258.6247787272818,-233.23588510015117
2387.4814650535845,-254.53984738687927,-266.9495610546523,-240.92605442797986
2443.0930523895213,-262.73103204628666,-275.32538791497785,-248.82129561364894
2499.9999999999945,-270.9815638675952,-283.66969039801194,-256.86717707811766
2558.2324807018795,-279.2146575729694,-291.9024238503968,-264.9986640806424
2617.821370127243,-287.35506303418157,-299.95269290347517,-273.1444099418925
2678.79826309401,-295.3350609980741,-307.76348674102644,-281.2322623411113
2741.1954903579563,-303.0989540307247,-315.2938685150712,-289.19492436683305
2805.046135754902,-310.60540076084965,-322.5187518090489,-296.974654691351
2870.3840537422,-317.82760176112106,-329.42693956109184,-304.5262279591909
2937.2438873488168,-324.7518432123952,-336.01826910251816,-311.8179267244998
3005.661086543525,-331.37510442734515,-342.300583356042,-318.8308425354912
3075.6719270309463,-337.70237637267604,-348.286996537663,-325.5570508896127
3147.31352948541,-343.74414491605637,-353.9936760626396,-331.99726675288616
3220.6238792328268,-349.51428058762497,-359.4381845599857,-338.15846459773024
3295.6418463910095,-355.02841111392735,-364.6383255113417,-344.05176503084454
3372.4072064791253,-360.30275094751187,-369.61139504670274,-349.69072472273115
3450.960661507203,-365.3533136458627,-374.373737621998,-355.09005022414004
3531.343861556876,-370.19542009056613,-378.9405161061867,-360.2646910484972
3613.5994268648087,-374.843421831426,-383.3256254660127,-365.2292406450151
3697.770970420508,-379.3105730193161,-387.54169757810433,-369.99757075687074
3783.9031210905096,-383.6089999890345,-391.60016014328227,-374.5826333501819
3872.041547281192,-387.74973149610156,-395.511324617131,-378.9963771954723
3962.232981152772,-391.7427638390209,-399.284486800986,-383.2497391325905
4054.525243397313,-395.59714357588456,-402.9280298691049,-387.35268120521715
4148.9672685938895,-399.32105666471165,-406.4495237775157,-391.3142536787815
4245.609131154349,-402.92191712651913,-409.8558177545656,-395.14267056691557
4344.502071873426,-406.4064512228694,-413.15312433984025,-398.8453890498132
4445.698525097294,-409.7807750457382,-416.3470945327106,-402.42918748592996
4549.252146524945,-413.0504646362871,-419.4428842592802,-405.9002389688674
4655.217841657154,-416.2206184999956,-422.44521272304996,-409.2641788663707
4763.651794908103,-419.2959128247314,-425.3584133762575,-412.52616572891986
4874.611499395098,-422.28064994416167,-428.1864783064409,-415.6909355408071
4988.155787422183,-425.1788006954695,-430.93309682285127,-418.76284962763856
5104.344861673806,-427.9940413472532,-433.601688979941,-421.7459367152801
5223.24032713508,-430.7297857535527,-436.1954347092855,-424.6439297142279
5344.905223755562,-433.38921334440573,-438.71729915865495,-427.4602978192897
5469.404059873862,-435.9752935056871,-441.1700547644867,-430.1982744932664
5596.802846420829,-438.49080683954656,-443.55630051559467,-432.86088186193325
5727.169131919412,-440.93836373646116,-445.8784788035345,-435.45095199684494
5860.572038299784,-443.32042063348746,-448.13889019938654,-437.971145509026
5997.082297548704,-445.6392942820773,-450.33970644786774,-440.4239678244161
6136.772289212554,-447.8971743032723,-452.4829819272778,-442.81178346324543
6279.716078773928,-450.0961342681802,-454.5706637872932,-445.1368286013692
6425.989456922136,-452.23814150703527,-456.6046009453842,-447.40122215237545
6575.669979738431,-454.32506582036893,-458.5865520960197,-449.6069755749332
6728.8370098172645,-456.3586872403462,-460.5181928642073,-451.756001580078
6885.571758345391,-458.34070296862023,-462.4011222157527,-453.8501218875292
7045.957328161108,-460.2727335986197,-464.23686822037484,-455.89107415823366
7210.078757816488,-462.15632871454625,-466.02689325008305,-457.88051821168733
7378.023066665936,-463.99297194612035,-467.7725986835809,-459.8200416207414
7549.879301005011,-465.7840855468979,-469.47532917762265,-461.7111647631866
7725.738581283947,-467.531034554496,-471.13637655790046,-463.5553453980428
7905.694150420918,-469.23513058302524,-472.75698337496857,-465.35398282487216
8089.841423240675,-470.8976352912163,-474.33834616470455,-467.10842167630506
8278.278037064745,-472.51976356395164,-475.8816184476986,-468.819609955305
8471.10390348003,-474.10268643999956,-477.38791349761897,-470.4884065907455
8668.421261313257,-475.6475338145799,-478.85830690489195,-472.1167891197833
8870.334730839351,-477.1553969418252,-480.2938389588717,-473.7059094444798
9076.951369252498,-478.62733075916975,-481.6955168689692,-475.2568800084262
9288.380727429276,-480.06435605310355,-483.06431684289305,-476.77077606890094
9504.73490801399,-481.46746148350417,-484.4011860381674,-478.2486378148001
9726.128624856974,-482.83760548185626,-485.70704440138974,-479.6914723465481
9952.679263837388,-484.1757180370321,-486.9827864082271,-481.1002555323893
10184.506945102774,-485.48270238090095,-488.229282715894,-482.4759337539098
10421.734586758339,-486.75943658482487,-489.4473817387752,-483.8194255523066
10664.487970039769,-488.0067750770573,-490.6379111569344,-485.13162318577344
10912.8958060041,-489.22555009016503,-491.80167936645233,-486.41339410738516
11167.089803774028,-490.4165730468256,-492.9394768798697,-487.6655823720146
11427.204740371824,-491.5806358916851,-494.0520776844295,-488.8890099800726
11693.378532179902,-492.71851237640243,-495.140240565331,-490.0844781652428
11965.752308065905,-493.8309593045142,-496.2047104008014,-491.25276863282573
12244.470484211099,-494.9187177423516,-497.2462194354562,-492.394644754849
12529.680840681749,-495.98251420189195,-498.26548853814626,-493.51085272769706
12821.534599784061,-497.02306180113976,-499.263228450276,-494.60212269767476
13120.186506244254,-498.04106140740225,-500.24014103041185,-495.6691698596332
13425.794909256256,-499.03720276863163,-501.19692050088844,-496.7126955335499
13738.52184644055,-500.01216563786676,-502.1342547020493,-497.73338822375473
14058.533129758662,-500.9666208957,-503.0528263597273,-498.73192466534226
14385.998433428857,-501.90123167563127,-503.9533143715843,-499.7089708621862
14721.091383889656,-502.81665449713455,-504.8363951179787,-500.6651831208872
15063.989651858874,-503.71354041126926,-505.70274380310997,-501.601209084925
15414.875046536983,-504.59253616369523,-506.55303583231574,-502.5176887732655
15773.933612004757,-505.4542853800191,-507.3879482315473,-503.41525562766384
16141.355725866311,-506.299429778487,-508.2081611152393,-504.2945375729423
16517.33620018982,-507.1286104151665,-509.01435920901474,-505.15615809456847
16902.074384799464,-507.9424689669067,-509.80723343391986,-506.00073733793886
17295.77427297333,-508.7416490575488,-510.58748255917715,-506.8288932338787
17698.64460960336,-509.52679763306855,-511.355814930767,-507.64124265499606
18110.899001874663,-510.2985663915673,-512.1129502835113,-508.43840260768263
18532.756032522848,-511.0576132743015,-512.8596216447203,-509.2209914647299
18964.4393757295,-511.8046040242328,-513.5965773378996,-509.9896302437386
19406.177915717195,-512.5402138189163,-514.3245830954697,-510.7449439367258
19858.205868106936,-513.2651289848981,-515.0444242899523,-511.487562896591
20320.762904102376,-513.98004880119,-515.7569082936019,-512.2181242863913
20794.094277566666,-514.685687399811,-516.4628669770282,-512.9372735976807
21278.4509550593,-515.3827757718375,-517.1631593579386,-513.645666244517
21774.0897489019,-516.072063887902,-517.858674411751,-514.3439692401038
22281.27345334352,-516.7543229425867,-518.5503340564587,-515.032862963439
22800.270983897623,-517.430347732719,-519.2390963247843,-515.7130430237722
23331.35751992465,-518.1009591801518,-519.9259587373144,-516.3852222311292
23874.81465053577,-518.767007010214,-520.6119618909537,-517.0501326816646
24430.930523895135,-519.429372597652,-521.2981932776704,-517.7085279671159
24999.999999999865,-520.0889719925211,-521.9857913490854,-518.3611855181923
25582.324807018715,-520.7467591391465,-522.6759498429806,-519.0089090923118
26178.213701272347,-521.4037293019273,-523.3699223882164,-519.652531416702
26787.982630940016,-522.0609227123989,-524.069027404829,-520.2929169985184
27411.954903579477,-522.7194284525845,-524.7746533161509,-520.9309651142704
28050.461357548935,-523.3803885902269,-525.4882640896323,-521.56761299151
28703.840537421915,-524.045002581974,-526.211405122505,-522.20383919639
29372.43887348808,-524.7145319609592,-526.9457094874673,-522.8406672413474
30056.61086543516,-525.3903053254269,-527.6929045520293,-523.4791694277834
30756.71927030937,-526.0737236450395,-528.4548189828688,-524.1204709391814
31473.135294854008,-526.7662659012118,-529.233390143357,-524.7657542005968
32206.23879232817,-527.4694950771365,-530.0306718880304,-525.4162635208332
32956.41846390999,-528.1850645120109,-530.8488427519533,-526.0733100338518
33724.07206479115,-528.914724632183,-531.6902145252685,-526.7382769559746
34509.60661507193,-529.6603300693574,-532.557241193321,-527.412625175192
35313.43861556866,-530.4238471724206,-533.4525282100776,-528.0978991882547
36135.994268647984,-531.2073619146025,-534.3788420564892,-528.7957334001466
36977.70970420498,-532.0130881912885,-535.3391200152507,-529.5078587988314
37839.03121090499,-532.8433764954336,-536.3364800682117,-530.236110015713
38720.415472811816,-533.7007229467813,-537.3742307914821,-530.9824327788085
39622.32981152761,-534.5877786373675,-538.4558810849034,-531.7488917609927
40545.252433973015,-535.5073592384852,-539.5851495257119,-532.5376788195115
41489.67268593878,-536.4624547925768,-540.7659730794899,-533.3511216149052
42456.091311543365,-537.4562395865481,-542.0025148333543,-534.1916925871241
43445.02071873414,-538.4920819696845,-543.2991703352693,-535.0620182533759
44456.985250972815,-539.5735539385142,-544.6605720279363,-535.9648887755395
45492.52146524932,-540.7044402612908,-546.0915911548285,-536.9032677240023
46552.17841657141,-541.8887468547962,-547.5973363890083,-537.8803019387126
47636.517949080895,-543.1307080544225,-549.1831482928194,-538.8993313560123
48746.11499395084,-544.4347923334715,-550.8545885602775,-539.9638986303017
49881.55787422169,-545.8057059280347,-552.6174228280661,-541.0777583314903
51043.44861673792,-547.2483937087271,-554.4775956726562,-542.2448854410752
52232.40327135067,-548.7680365097076,-556.4411962514861,-543.4694828001122
53449.05223755547,-550.370043979695,-558.514412911955,-544.7559870798121
54694.04059873847,-552.0600418616277,-560.703475006328,-546.1090727487101
55968.02846420814,-553.8438524422211,-563.0145801440792,-547.5336533983124
57271.69131919397,-555.7274667482964,-565.4538052242516,-549.0348796615026
58605.720382997686,-557.7170069162103,-568.0269998648552,-550.6181328154532
59970.82297548688,-559.8186770424277,-570.7396613348768,-552.2890130056419
61367.72289212537,-562.0387007624373,-573.5967908479139,-554.0533208643749
